# Dist(A) FCI(Ha) Skala_Torch(Ha) Skala_JAX(Ha) HF(Ha)
     0.50000000     -1.05515979     -1.08244988     -1.08231153     -1.04299627
     0.62068966     -1.12296457     -1.14742565     -1.14728725     -1.10710385
     0.74137931     -1.13727040     -1.15916724     -1.15902662     -1.11668552
     0.86206897     -1.12663779     -1.14580271     -1.14557925     -1.10013463
     0.98275862     -1.10474968     -1.12114926     -1.12082812     -1.07089276
     1.10344828     -1.07841748     -1.09148095     -1.09115210     -1.03547726
     1.22413793     -1.05141339     -1.05982003     -1.05949034     -0.99739471
     1.34482759     -1.02607838     -1.02823219     -1.02790286     -0.95884159
     1.46551724     -1.00382921     -0.99848674     -0.99815840     -0.92128069
     1.58620690     -0.98533818     -0.97108884     -0.97076212     -0.88565298
     1.70689655     -0.97068877     -0.94653294     -0.94620868     -0.85251733
     1.82758621     -0.95955566     -0.92470824     -0.92438754     -0.82216286
     1.94827586     -0.95138798     -0.90531192     -0.90499621     -0.79468960
     2.06896552     -0.94556547     -0.88840397     -0.88809503     -0.77006367
     2.18965517     -0.94150647     -0.87387515     -0.87357512     -0.74815811
     2.31034483     -0.93872369     -0.86136482     -0.86107618     -0.72878694
     2.43103448     -0.93683914     -0.85072055     -0.85044598     -0.71173393
     2.55172414     -0.93557467     -0.84170563     -0.84144783     -0.69677450
     2.67241379     -0.93473279     -0.83414971     -0.83391113     -0.68369000
     2.79310345     -0.93417638     -0.82783928     -0.82762187     -0.67227476
     2.91379310     -0.93381150     -0.82257303     -0.82237795     -0.66233827
     3.03448276     -0.93357425     -0.81819796     -0.81802550     -0.65370483
     3.15517241     -0.93342143     -0.81459209     -0.81444171     -0.64621252
     3.27586207     -0.93332396     -0.81166337     -0.81153357     -0.63971253
     3.39655172     -0.93326243     -0.80931825     -0.80920812     -0.63406904
     3.51724138     -0.93322397     -0.80746249     -0.80736822     -0.62915937
     3.63793103     -0.93320016     -0.80598032     -0.80590059     -0.62487422
     3.75862069     -0.93318557     -0.80478988     -0.80472263     -0.62111763
     3.87931034     -0.93317670     -0.80384131     -0.80378463     -0.61780653
     4.00000000     -0.93317136     -0.80309190     -0.80304412     -0.61486997
